   0.0000    410067
   0.0050    343535
   0.0100    289707
   0.0150    241567
   0.0200    211285
   0.0250    186893
   0.0300    168643
   0.0350    161587
   0.0400    151284
   0.0450    142671
   0.0500    137810
   0.0550    131580
   0.0600    123485
   0.0650    118260
   0.0700    110578
   0.0750    102806
   0.0800     98246
   0.0850     94083
   0.0900     88481
   0.0950     83835
   0.1000     80017
   0.1050     76094
   0.1100     71353
   0.1150     66440
   0.1200     60653
   0.1250     55786
   0.1300     51361
   0.1350     48022
   0.1400     44155
   0.1450     39860
   0.1500     36916
   0.1550     32918
   0.1600     30048
   0.1650     27260
   0.1700     25236
   0.1750     22328
   0.1800     19684
   0.1850     17243
   0.1900     15157
   0.1950     13155
   0.2000     11268
   0.2050      9530
   0.2100      7889
   0.2150      6608
   0.2200      5162
   0.2250      4296
   0.2300      3466
   0.2350      2786
   0.2400      2473
   0.2450      2082
   0.2500      1904
   0.2550      1697
   0.2600      1628
   0.2650      1468
   0.2700      1342
   0.2750      1360
   0.2800      1243
   0.2850      1193
   0.2900      1151
   0.2950      1152
   0.3000      1070
   0.3050      1064
   0.3100      1055
   0.3150       917
   0.3200       933
   0.3250       912
   0.3300       889
   0.3350       924
   0.3400       867
   0.3450       913
   0.3500       819
   0.3550       840
   0.3600       815
   0.3650       783
   0.3700       858
   0.3750       766
   0.3800       770
   0.3850       717
   0.3900       715
   0.3950       712
   0.4000       736
   0.4050       636
   0.4100       582
   0.4150       587
   0.4200       586
   0.4250       515
   0.4300       487
   0.4350       451
   0.4400       449
   0.4450       401
   0.4500       386
   0.4550       333
   0.4600       324
   0.4650       271
   0.4700       272
   0.4750       219
   0.4800       182
   0.4850       157
   0.4900       164
   0.4950       142
   0.5000       154
   0.5050       174
   0.5100       151
   0.5150       127
   0.5200       142
   0.5250       142
   0.5300       123
   0.5350       108
   0.5400       116
   0.5450        92
   0.5500       119
   0.5550       116
   0.5600       150
   0.5650       117
   0.5700       103
   0.5750       139
   0.5800        85
   0.5850        88
   0.5900       115
   0.5950        99
   0.6000        94
   0.6050       102
   0.6100       117
   0.6150       100
   0.6200       101
   0.6250        99
   0.6300        96
   0.6350        83
   0.6400        74
   0.6450        96
   0.6500        91
   0.6550       103
   0.6600        94
   0.6650       104
   0.6700        86
   0.6750        92
   0.6800        74
   0.6850        73
   0.6900        65
   0.6950        69
   0.7000        81
   0.7050        70
   0.7100        67
   0.7150        77
   0.7200        67
   0.7250        85
   0.7300        87
   0.7350        66
   0.7400        49
   0.7450        63
   0.7500        51
   0.7550        50
   0.7600        58
   0.7650        57
   0.7700        67
   0.7750        58
   0.7800        60
   0.7850        54
   0.7900        50
   0.7950        44
   0.8000        41
   0.8050        43
   0.8100        40
   0.8150        52
   0.8200        52
   0.8250        53
   0.8300        58
   0.8350        63
   0.8400        50
   0.8450        51
   0.8500        38
   0.8550        41
   0.8600        31
   0.8650        44
   0.8700        31
   0.8750        39
   0.8800        48
   0.8850        42
   0.8900        40
   0.8950        42
   0.9000        35
   0.9050        34
   0.9100        25
   0.9150        19
   0.9200        29
   0.9250        31
   0.9300        24
   0.9350        34
   0.9400        35
   0.9450        34
   0.9500        27
   0.9550        30
   0.9600        23
   0.9650        27
   0.9700        22
   0.9750        34
   0.9800        28
   0.9850        19
   0.9900        29
   0.9950        24
   1.0000        22
   1.0050        22
   1.0100        25
   1.0150        17
   1.0200        20
   1.0250        18
   1.0300        24
   1.0350        19
   1.0400        34
   1.0450        26
   1.0500        21
   1.0550        17
   1.0600        19
   1.0650        19
   1.0700        19
   1.0750        13
   1.0800        17
   1.0850        21
   1.0900        25
   1.0950        24
   1.1000        20
   1.1050        21
   1.1100        20
   1.1150         9
   1.1200        14
   1.1250        14
   1.1300        14
   1.1350        14
   1.1400        21
   1.1450        12
   1.1500        15
   1.1550        17
   1.1600        15
   1.1650        13
   1.1700        15
   1.1750        14
   1.1800        10
   1.1850        12
   1.1900        21
   1.1950         7
   1.2000        16
   1.2050        14
   1.2100         9
   1.2150         5
   1.2200        16
   1.2250        12
   1.2300        11
   1.2350        14
   1.2400         9
   1.2450        13
   1.2500         8
   1.2550         6
   1.2600         9
   1.2650        12
   1.2700         6
   1.2750         9
   1.2800         8
   1.2850         5
   1.2900         5
   1.2950        10
   1.3000        10
   1.3050         6
   1.3100         7
   1.3150        12
   1.3200         6
   1.3250        12
   1.3300         9
   1.3350        10
   1.3400        10
   1.3450         6
   1.3500        12
   1.3550         8
   1.3600         8
   1.3650         3
   1.3700         8
   1.3750         4
   1.3800         9
   1.3850         6
   1.3900         6
   1.3950         6
   1.4000        12
   1.4050        10
   1.4100         8
   1.4150         6
   1.4200         5
   1.4250         7
   1.4300         7
   1.4350         9
   1.4400         9
   1.4450         6
   1.4500         9
   1.4550         6
   1.4600         5
   1.4650         3
   1.4700         9
   1.4750         4
   1.4800         7
   1.4850         4
   1.4900         8
   1.4950         5
   1.5000         4
   1.5050         4
   1.5100         3
   1.5150         3
   1.5200         6
   1.5250        11
   1.5300         5
   1.5350         7
   1.5400         6
   1.5450         4
   1.5500         2
   1.5550         4
   1.5600         1
   1.5650         6
   1.5700         6
   1.5750         5
   1.5800        11
   1.5850         3
   1.5900         5
   1.5950         3
   1.6000         4
   1.6050         5
   1.6100         3
   1.6150         2
   1.6200         2
   1.6250         2
   1.6300         5
   1.6350         7
   1.6400         7
   1.6450         4
   1.6500         4
   1.6550         4
   1.6600         2
   1.6650         4
   1.6700         2
   1.6750         5
   1.6800         4
   1.6850         6
   1.6900         8
   1.6950         3
   1.7000         3
   1.7050         4
   1.7100         4
   1.7150         4
   1.7200         4
   1.7250         1
   1.7300         2
   1.7350         6
   1.7400         2
   1.7450         3
   1.7500         2
   1.7550         5
   1.7600         5
   1.7650         2
   1.7700         7
   1.7750         2
   1.7800         3
   1.7850         4
   1.7900         3
   1.7950         2
   1.8000         4
   1.8050         0
   1.8100         1
   1.8150         1
   1.8200         3
   1.8250         1
   1.8300        11
   1.8350         2
   1.8400         7
   1.8450         4
   1.8500         2
   1.8550         3
   1.8600         1
   1.8650         1
   1.8700         3
   1.8750         4
   1.8800         4
   1.8850         4
   1.8900         0
   1.8950         5
   1.9000         2
   1.9050         2
   1.9100         5
   1.9150         2
   1.9200         1
   1.9250         2
   1.9300         2
   1.9350         4
   1.9400         2
   1.9450         0
   1.9500         1
   1.9550         4
   1.9600         4
   1.9650         1
   1.9700         2
   1.9750         5
   1.9800         5
   1.9850         2
   1.9900         6
   1.9950         3
   2.0000         4
   2.0050        10
   2.0100         2
   2.0150         5
   2.0200         2
   2.0250         1
   2.0300         2
   2.0350         4
   2.0400         4
   2.0450         3
   2.0500         3
   2.0550         6
   2.0600         2
   2.0650         1
   2.0700         1
   2.0750         2
   2.0800         1
   2.0850         6
   2.0900         2
   2.0950         2
   2.1000         1
   2.1050         5
   2.1100         1
   2.1150         5
   2.1200         4
   2.1250         3
   2.1300         4
   2.1350         1
   2.1400         0
   2.1450         3
   2.1500         2
   2.1550         3
   2.1600         3
   2.1650         3
   2.1700         2
   2.1750         3
   2.1800         0
   2.1850         3
   2.1900         3
   2.1950         2
   2.2000         5
   2.2050         3
   2.2100         1
   2.2150         4
   2.2200         3
   2.2250         4
   2.2300         2
   2.2350         5
   2.2400         1
   2.2450         0
   2.2500         0
   2.2550         2
   2.2600         1
   2.2650         2
   2.2700         2
   2.2750         3
   2.2800         3
   2.2850         3
   2.2900         3
   2.2950         3
   2.3000         3
   2.3050         0
   2.3100         4
   2.3150         1
   2.3200         2
   2.3250         2
   2.3300         2
   2.3350         4
   2.3400         1
   2.3450         2
   2.3500         3
   2.3550         2
   2.3600         0
   2.3650         8
   2.3700         2
   2.3750         3
   2.3800         2
   2.3850         1
   2.3900         2
   2.3950         3
   2.4000         1
   2.4050         1
   2.4100         2
   2.4150         2
   2.4200         4
   2.4250         4
   2.4300         2
   2.4350         4
   2.4400         2
   2.4450         5
   2.4500         0
   2.4550         4
   2.4600         1
   2.4650         2
   2.4700         3
   2.4750         0
   2.4800         1
   2.4850         4
   2.4900         1
   2.4950         1
   2.5000         3
