   0.0000  14616600
   0.0100  20911500
   0.0200  27148200
   0.0300  32676800
   0.0400  36957600
   0.0500  39810000
   0.0600  40848000
   0.0700  39627400
   0.0800  35804500
   0.0900  30340700
   0.1000  24508600
   0.1100  18944100
   0.1200  14161200
   0.1300  10462900
   0.1400   7895250
   0.1500   6511420
   0.1600   6782870
   0.1700   6468410
   0.1800   6260440
   0.1900   6074570
   0.2000   5909670
   0.2100   5751330
   0.2200   5525480
   0.2300   5088130
   0.2400   4480330
   0.2500   3723770
   0.2600   2906430
   0.2700   2092020
   0.2800   1439390
   0.2900   1020250
   0.3000    769792
   0.3100    633718
   0.3200    481694
   0.3300    359992
   0.3400    286736
   0.3500    244826
   0.3600    208047
   0.3700    175600
   0.3800    152433
   0.3900    138990
   0.4000    126199
   0.4100    111024
   0.4200     96345
   0.4300     85401
   0.4400     79216
   0.4500     72901
   0.4600     65150
   0.4700     57252
   0.4800     52513
   0.4900     50035
   0.5000     47304
   0.5100     43003
   0.5200     38807
   0.5300     36153
   0.5400     34840
   0.5500     33497
   0.5600     31107
   0.5700     28258
   0.5800     26888
   0.5900     26016
   0.6000     25720
   0.6100     24457
   0.6200     22519
   0.6300     21287
   0.6400     21163
   0.6500     20326
   0.6600     20046
   0.6700     18866
   0.6800     17621
   0.6900     17469
   0.7000     17267
   0.7100     16884
   0.7200     16085
   0.7300     15473
   0.7400     15301
   0.7500     15191
   0.7600     14963
   0.7700     14733
   0.7800     14631
   0.7900     14697
   0.8000     15277
   0.8100     16062
   0.8200     16724
   0.8300     17937
   0.8400     19701
   0.8500     21384
   0.8600     24352
   0.8700     27033
   0.8800     30181
   0.8900     33126
   0.9000     36815
   0.9100     40361
   0.9200     43786
   0.9300     45836
   0.9400     47930
   0.9500     48469
   0.9600     48125
   0.9700     46542
   0.9800     44287
   0.9900     40299
   1.0000     35846
   1.0100     30611
   1.0200     25097
   1.0300     19715
   1.0400     15284
   1.0500     11311
   1.0600      8383
   1.0700      5825
   1.0800      3693
   1.0900      2483
   1.1000      1757
   1.1100      1692
   1.1200      1617
   1.1300      1568
   1.1400      1574
   1.1500      1422
   1.1600      1378
   1.1700      1321
   1.1800      1313
   1.1900      1326
   1.2000      1218
   1.2100      1160
   1.2200      1133
   1.2300      1063
   1.2400      1104
   1.2500      1007
   1.2600       993
   1.2700       935
   1.2800       865
   1.2900       892
   1.3000       890
   1.3100       844
   1.3200       811
   1.3300       769
   1.3400       785
   1.3500       781
   1.3600       766
   1.3700       717
   1.3800       690
   1.3900       691
   1.4000       645
   1.4100       637
   1.4200       625
   1.4300       592
   1.4400       550
   1.4500       519
   1.4600       515
   1.4700       525
   1.4800       541
   1.4900       469
   1.5000       472
   1.5100       483
   1.5200       421
   1.5300       445
   1.5400       416
   1.5500       414
   1.5600       398
   1.5700       389
   1.5800       364
   1.5900       381
   1.6000       340
   1.6100       354
   1.6200       360
   1.6300       349
   1.6400       343
   1.6500       310
   1.6600       326
   1.6700       307
   1.6800       277
   1.6900       254
   1.7000       253
   1.7100       292
   1.7200       277
   1.7300       264
   1.7400       256
   1.7500       263
   1.7600       289
   1.7700       279
   1.7800       251
   1.7900       262
   1.8000       222
   1.8100       251
   1.8200       211
   1.8300       213
   1.8400       222
   1.8500       235
   1.8600       216
   1.8700       227
   1.8800       201
   1.8900       189
   1.9000       198
   1.9100       184
   1.9200       195
   1.9300       170
   1.9400       198
   1.9500       180
   1.9600       145
   1.9700       179
   1.9800       165
   1.9900       178
   2.0000       154
   2.0100       161
   2.0200       172
   2.0300       139
   2.0400       146
   2.0500       142
   2.0600       132
   2.0700       137
   2.0800       139
   2.0900       126
