   0.0000   2316960
   0.0050   2605580
   0.0100   2821600
   0.0150   2914710
   0.0200   2763890
   0.0250   2389320
   0.0300   1900630
   0.0350   1493650
   0.0400   1245230
   0.0450   1108480
   0.0500   1056110
   0.0550   1041750
   0.0600   1058820
   0.0650   1080690
   0.0700   1115070
   0.0750   1158190
   0.0800   1198530
   0.0850   1253990
   0.0900   1312560
   0.0950   1357540
   0.1000   1416010
   0.1050   1469290
   0.1100   1527960
   0.1150   1577730
   0.1200   1627970
   0.1250   1689850
   0.1300   1736060
   0.1350   1796470
   0.1400   1842290
   0.1450   1870440
   0.1500   1916060
   0.1550   1934160
   0.1600   1958390
   0.1650   1979020
   0.1700   1996960
   0.1750   2048530
   0.1800   2080760
   0.1850   2121640
   0.1900   2144570
   0.1950   2162170
   0.2000   2147920
   0.2050   2099930
   0.2100   1984490
   0.2150   1826470
   0.2200   1614720
   0.2250   1351830
   0.2300   1089060
   0.2350    823038
   0.2400    600242
   0.2450    441910
   0.2500    339741
   0.2550    268719
   0.2600    233024
   0.2650    210865
   0.2700    190963
   0.2750    166127
   0.2800    137762
   0.2850    110740
   0.2900     90395
   0.2950     79418
   0.3000     76551
   0.3050     76971
   0.3100     76613
   0.3150     73165
   0.3200     66348
   0.3250     57402
   0.3300     47330
   0.3350     40487
   0.3400     35781
   0.3450     34970
   0.3500     35929
   0.3550     37028
   0.3600     37202
   0.3650     35026
   0.3700     31237
   0.3750     26904
   0.3800     22589
   0.3850     20107
   0.3900     18920
   0.3950     18939
   0.4000     20125
   0.4050     20468
   0.4100     20379
   0.4150     19231
   0.4200     17172
   0.4250     14879
   0.4300     12898
   0.4350     11626
   0.4400     11147
   0.4450     11247
   0.4500     12077
   0.4550     12238
   0.4600     12272
   0.4650     11597
   0.4700     10378
   0.4750      9002
   0.4800      7816
   0.4850      7165
   0.4900      6824
   0.4950      6800
   0.5000      7136
   0.5050      7425
   0.5100      7409
   0.5150      7022
   0.5200      6403
   0.5250      5537
   0.5300      4786
   0.5350      4339
   0.5400      4152
   0.5450      4216
   0.5500      4406
   0.5550      4641
   0.5600      4719
   0.5650      4506
   0.5700      4153
   0.5750      3709
   0.5800      3176
   0.5850      2872
   0.5900      2709
   0.5950      2646
   0.6000      2930
   0.6050      3070
   0.6100      3053
   0.6150      3284
   0.6200      3055
   0.6250      2593
   0.6300      2234
   0.6350      1940
   0.6400      1839
   0.6450      1810
   0.6500      1904
   0.6550      2050
   0.6600      2151
   0.6650      2136
   0.6700      2091
   0.6750      1818
   0.6800      1615
   0.6850      1480
   0.6900      1302
   0.6950      1271
   0.7000      1216
   0.7050      1382
   0.7100      1466
   0.7150      1581
   0.7200      1539
   0.7250      1475
   0.7300      1281
   0.7350      1068
   0.7400       978
   0.7450       916
   0.7500       882
   0.7550       977
   0.7600      1032
   0.7650      1085
   0.7700      1056
   0.7750      1073
   0.7800       985
   0.7850       911
   0.7900       745
   0.7950       662
   0.8000       698
   0.8050       653
   0.8100       694
   0.8150       785
   0.8200       794
   0.8250       817
   0.8300       751
   0.8350       695
   0.8400       569
   0.8450       541
   0.8500       508
   0.8550       455
   0.8600       523
   0.8650       574
   0.8700       533
   0.8750       583
   0.8800       567
   0.8850       541
   0.8900       529
   0.8950       438
   0.9000       395
   0.9050       366
   0.9100       408
   0.9150       388
   0.9200       426
   0.9250       429
   0.9300       414
   0.9350       414
   0.9400       400
   0.9450       341
   0.9500       293
   0.9550       271
   0.9600       257
   0.9650       278
   0.9700       332
   0.9750       333
   0.9800       349
   0.9850       323
   0.9900       317
   0.9950       270
   1.0000       259
   1.0050       223
   1.0100       200
   1.0150       209
   1.0200       249
   1.0250       252
   1.0300       274
   1.0350       262
   1.0400       241
   1.0450       221
   1.0500       232
   1.0550       201
   1.0600       159
   1.0650       178
   1.0700       174
   1.0750       161
   1.0800       193
   1.0850       186
   1.0900       192
   1.0950       200
   1.1000       174
   1.1050       150
   1.1100       150
   1.1150       140
   1.1200       123
   1.1250       153
   1.1300       163
   1.1350       157
   1.1400       134
   1.1450       137
   1.1500       151
   1.1550       133
   1.1600       123
   1.1650        97
   1.1700        78
   1.1750        97
   1.1800       102
   1.1850       117
   1.1900       124
   1.1950       125
   1.2000       118
   1.2050       123
   1.2100       103
   1.2150        80
   1.2200        95
   1.2250        79
   1.2300        93
   1.2350        94
   1.2400        96
   1.2450       109
   1.2500       109
   1.2550       103
   1.2600        93
   1.2650        76
   1.2700        89
   1.2750        73
   1.2800        59
   1.2850        60
   1.2900        65
   1.2950        59
   1.3000        77
   1.3050        75
   1.3100        74
   1.3150        63
   1.3200        52
   1.3250        42
   1.3300        59
   1.3350        66
   1.3400        65
   1.3450        39
   1.3500        62
   1.3550        61
   1.3600        62
   1.3650        60
   1.3700        46
   1.3750        37
   1.3800        39
   1.3850        38
   1.3900        31
   1.3950        42
   1.4000        43
   1.4050        50
   1.4100        48
   1.4150        61
   1.4200        46
   1.4250        36
   1.4300        41
   1.4350        30
   1.4400        36
   1.4450        35
   1.4500        33
   1.4550        51
   1.4600        43
   1.4650        49
   1.4700        38
   1.4750        27
   1.4800        37
   1.4850        35
   1.4900        25
   1.4950        30
   1.5000        33
   1.5050        31
   1.5100        29
   1.5150        31
   1.5200        28
   1.5250        34
   1.5300        27
   1.5350        25
   1.5400        23
   1.5450        16
   1.5500        23
   1.5550        30
   1.5600        26
   1.5650        22
   1.5700        31
   1.5750        27
   1.5800        30
   1.5850        27
   1.5900        19
   1.5950        20
   1.6000        19
   1.6050        18
   1.6100        22
   1.6150        14
   1.6200        21
   1.6250        26
   1.6300        22
   1.6350        15
   1.6400        17
   1.6450        18
   1.6500        19
   1.6550        15
   1.6600        19
   1.6650        15
   1.6700        17
   1.6750        15
   1.6800        14
   1.6850        18
   1.6900        25
   1.6950        10
   1.7000        16
   1.7050        17
   1.7100        13
   1.7150        13
   1.7200        13
   1.7250        11
   1.7300        13
   1.7350        19
   1.7400        12
   1.7450        14
   1.7500        13
   1.7550        12
   1.7600        20
   1.7650         8
   1.7700        13
   1.7750        13
   1.7800        15
   1.7850         8
   1.7900        14
   1.7950         6
   1.8000        13
   1.8050        10
   1.8100         8
   1.8150        17
   1.8200         7
   1.8250         6
   1.8300        15
   1.8350        10
   1.8400        17
   1.8450         8
   1.8500        12
   1.8550         9
   1.8600         6
   1.8650        14
   1.8700         6
   1.8750        16
   1.8800        15
   1.8850        14
   1.8900        10
   1.8950         8
   1.9000         5
   1.9050        11
   1.9100         8
   1.9150         9
   1.9200         8
   1.9250         6
   1.9300         8
   1.9350        11
   1.9400        10
   1.9450        11
   1.9500         6
   1.9550        10
   1.9600        15
   1.9650         6
   1.9700        10
   1.9750         6
   1.9800         8
   1.9850         4
   1.9900         1
   1.9950         9
   2.0000         6
   2.0050         7
   2.0100         0
   2.0150         9
   2.0200        12
   2.0250         2
   2.0300         8
   2.0350         5
   2.0400         7
   2.0450         3
   2.0500         9
   2.0550         4
   2.0600         7
   2.0650         3
   2.0700         3
   2.0750         5
   2.0800         4
   2.0850        10
   2.0900         6
   2.0950         5
   2.1000         7
   2.1050         5
   2.1100         3
   2.1150        10
   2.1200         5
   2.1250         6
   2.1300         3
   2.1350         3
   2.1400         4
   2.1450         2
   2.1500         2
   2.1550         5
   2.1600         2
   2.1650         5
   2.1700         3
   2.1750         5
   2.1800         6
   2.1850         9
   2.1900         5
   2.1950         3
   2.2000         8
   2.2050         3
   2.2100         3
   2.2150         3
   2.2200        10
   2.2250         2
   2.2300         2
   2.2350         5
   2.2400         7
   2.2450         3
   2.2500         5
   2.2550         2
   2.2600         5
   2.2650         5
   2.2700         4
   2.2750         4
   2.2800         4
   2.2850         2
   2.2900         4
   2.2950         5
   2.3000         0
   2.3050         2
   2.3100         2
   2.3150         5
   2.3200         8
   2.3250         2
   2.3300         2
   2.3350         2
   2.3400         2
   2.3450         2
   2.3500         6
   2.3550         4
   2.3600         5
   2.3650         5
   2.3700         6
   2.3750         7
   2.3800         5
   2.3850         5
   2.3900         2
   2.3950         5
   2.4000         1
   2.4050         5
   2.4100         3
   2.4150         3
   2.4200         3
   2.4250         1
   2.4300         5
   2.4350         7
   2.4400         5
   2.4450         5
   2.4500         3
   2.4550         2
   2.4600         0
   2.4650         4
   2.4700         1
   2.4750         2
   2.4800         2
   2.4850         4
   2.4900         4
   2.4950         1
   2.5000         2
