  -1.0000         0
  -0.9800         2
  -0.9600         1
  -0.9400         1
  -0.9200         1
  -0.9000         0
  -0.8800         1
  -0.8600         0
  -0.8400         0
  -0.8200         1
  -0.8000         1
  -0.7800         1
  -0.7600         7
  -0.7400         1
  -0.7200         3
  -0.7000         2
  -0.6800         5
  -0.6600         8
  -0.6400        14
  -0.6200        16
  -0.6000        28
  -0.5800        60
  -0.5600       251
  -0.5400      1912
  -0.5200      6711
  -0.5000     13633
  -0.4800     22218
  -0.4600     34089
  -0.4400     48476
  -0.4200     65739
  -0.4000     84568
  -0.3800    104635
  -0.3600    127471
  -0.3400    152047
  -0.3200    179413
  -0.3000    202493
  -0.2800    228073
  -0.2600    258354
  -0.2400    288611
  -0.2200    326349
  -0.2000    366031
  -0.1800    398847
  -0.1600    439517
  -0.1400    472704
  -0.1200    514456
  -0.1000    545503
  -0.0800    588179
  -0.0600    622315
  -0.0400    663173
  -0.0200    693849
   0.0000    717849
   0.0200    678484
   0.0400    632103
   0.0600    600708
   0.0800    562204
   0.1000    530240
   0.1200    494919
   0.1400    461178
   0.1600    426079
   0.1800    392030
   0.2000    356274
   0.2200    324990
   0.2400    296274
   0.2600    262778
   0.2800    235025
   0.3000    203607
   0.3200    177007
   0.3400    160913
   0.3600    136073
   0.3800    114847
   0.4000     93849
   0.4200     74141
   0.4400     56460
   0.4600     41379
   0.4800     28048
   0.5000     17818
   0.5200      9695
   0.5400      3597
   0.5600       640
   0.5800       101
   0.6000        41
   0.6200        27
   0.6400        17
   0.6600        15
   0.6800        11
   0.7000         5
   0.7200         6
   0.7400         7
   0.7600         2
   0.7800         0
   0.8000         3
   0.8200         2
   0.8400         3
   0.8600         2
   0.8800         4
   0.9000         5
   0.9200         1
   0.9400         1
   0.9600         0
   0.9800         1
   1.0000         2
